# Third moment of energy used: NO
# Temperature factor: 0.50
# E2/L= 0.324 E3/L= 0 s_C= 0.065
# Tfreeze= 0.79
# E_nat/L= -0.5073 Gfreeze/TL= -0.3009 E1/L= -0.0958
# NC1/L= 2.849 NC2/L= 21 NC3/L= -2.1e+03 nc1/L= 2.849
# L= 292 S_U/L= 0.065 S_C/L= 0.065
# Temp. DeltaG(nat-nonat)  G_misf-G_unf
0.779	-60.26	-58.30
0.784	-60.26	-58.11
0.789	-60.26	-57.92
0.794	-60.26	-57.73
0.799	-60.26	-57.55
0.804	-60.25	-57.36
0.809	-60.24	-57.18
0.814	-60.23	-57.00
0.819	-60.22	-56.82
0.824	-60.20	-56.65
0.829	-60.19	-56.48
0.834	-60.17	-56.30
0.839	-60.15	-56.14
0.844	-60.12	-55.97
0.849	-60.10	-55.80
0.854	-60.07	-55.64
0.859	-60.04	-55.48
0.864	-60.01	-55.32
0.869	-59.98	-55.16
0.874	-59.95	-55.01
0.879	-59.91	-54.85
0.884	-59.87	-54.70
0.889	-59.83	-54.55
0.894	-59.79	-54.40
0.899	-59.75	-54.26
0.904	-59.70	-54.11
0.909	-59.66	-53.97
0.914	-59.61	-53.82
0.919	-59.56	-53.68
0.924	-59.51	-53.54
0.929	-59.46	-53.41
0.934	-59.41	-53.27
0.939	-59.35	-53.14
0.944	-59.29	-53.00
0.949	-59.24	-52.87
0.954	-59.18	-52.74
0.959	-59.12	-52.61
0.964	-59.05	-52.48
0.969	-58.99	-52.36
0.974	-58.93	-52.23
0.979	-58.86	-52.11
0.984	-58.79	-51.99
0.989	-58.72	-51.86
0.994	-58.66	-51.74
0.999	-58.58	-51.62
1.004	-58.51	-51.51
1.009	-58.44	-51.39
1.014	-58.36	-51.27
1.019	-58.29	-51.16
1.024	-58.21	-51.05
1.029	-58.14	-50.94
1.034	-58.06	-50.82
1.039	-57.98	-50.71
1.044	-57.90	-50.61
1.049	-57.81	-50.50
1.054	-57.73	-50.39
1.059	-57.65	-50.28
1.064	-57.56	-50.18
1.069	-57.48	-50.08
1.074	-57.39	-49.97
1.079	-57.30	-49.87
1.084	-57.21	-49.77
1.089	-57.12	-49.67
1.094	-57.03	-49.57
1.099	-56.94	-49.47
1.104	-56.85	-49.38
1.109	-56.75	-49.28
1.114	-56.66	-49.18
1.119	-56.57	-49.09
1.124	-56.47	-48.99
1.129	-56.37	-48.90
1.134	-56.28	-48.81
1.139	-56.18	-48.72
1.144	-56.08	-48.63
1.149	-55.98	-48.54
1.154	-55.88	-48.45
1.159	-55.78	-48.36
1.164	-55.67	-48.27
1.169	-55.57	-48.19
1.174	-55.47	-48.10
1.179	-55.36	-48.01
1.184	-55.26	-47.93
1.189	-55.15	-47.85
1.194	-55.04	-47.76
1.199	-54.94	-47.68
1.204	-54.83	-47.60
1.209	-54.72	-47.52
1.214	-54.61	-47.44
1.219	-54.50	-47.36
1.224	-54.39	-47.28
1.229	-54.28	-47.20
1.234	-54.17	-47.12
1.239	-54.06	-47.04
1.244	-53.94	-46.97
1.249	-53.83	-46.89
1.254	-53.71	-46.82
1.259	-53.60	-46.74
1.264	-53.48	-46.67
1.269	-53.37	-46.59
1.274	-53.25	-46.52
